TITLE	07-ar-30min
DATA TYPE	ULTRAVIOLET SPECTRUM
ORIGIN	JASCO
OWNER	
DATE	20/09/22
TIME	13:49:13
SPECTROMETER/DATA SYSTEM	
LOCALE	1031
RESOLUTION	
DELTAX	-1
XUNITS	NANOMETERS
YUNITS	ABSORBANCE
FIRSTX	  600.0000
LASTX	  250.0000
NPOINTS	     351
FIRSTY	    -0.00045
MAXY	     2.42073
MINY	    -0.00045
XYDATA
600.0000	-0.0004543
599.0000	-0.000295164
598.0000	-0.00024812
597.0000	-0.000255793
596.0000	-0.000152746
595.0000	-0.000265635
594.0000	-0.000158676
593.0000	-0.000166589
592.0000	-7.48224E-005
591.0000	-0.000118909
590.0000	-0.000156105
589.0000	-0.00010606
588.0000	-0.000103413
587.0000	-0.000126498
586.0000	-0.000178803
585.0000	-0.000222366
584.0000	-7.53992E-005
583.0000	-4.72823E-005
582.0000	-1.22401E-005
581.0000	0.000150504
580.0000	0.000124621
579.0000	9.38151E-005
578.0000	2.79709E-005
577.0000	6.12665E-005
576.0000	0.000147345
575.0000	9.62841E-005
574.0000	8.03808E-005
573.0000	0.000151818
572.0000	0.000138826
571.0000	0.000191961
570.0000	0.00022712
569.0000	0.00020218
568.0000	0.00022844
567.0000	0.000319906
566.0000	0.000342978
565.0000	0.000305817
564.0000	0.000344903
563.0000	0.000407118
562.0000	0.000440058
561.0000	0.000283363
560.0000	0.00027013
559.0000	0.000374537
558.0000	0.000424871
557.0000	0.000379888
556.0000	0.000387526
555.0000	0.000500075
554.0000	0.000531456
553.0000	0.000469115
552.0000	0.000359719
551.0000	0.000414665
550.0000	0.000411684
549.0000	0.000389266
548.0000	0.00037602
547.0000	0.000425411
546.0000	0.000444821
545.0000	0.000531196
544.0000	0.000551279
543.0000	0.000549272
542.0000	0.000508326
541.0000	0.000605196
540.0000	0.000609151
539.0000	0.000771824
538.0000	0.000737662
537.0000	0.000880067
536.0000	0.000981084
535.0000	0.000974332
534.0000	0.00105509
533.0000	0.000995242
532.0000	0.00105955
531.0000	0.00103263
530.0000	0.0010776
529.0000	0.00112278
528.0000	0.00108679
527.0000	0.00103289
526.0000	0.00103082
525.0000	0.00110308
524.0000	0.00105805
523.0000	0.0011164
522.0000	0.00116719
521.0000	0.00121397
520.0000	0.000675469
519.0000	0.000828996
518.0000	0.00107164
517.0000	0.00131379
516.0000	0.00169711
515.0000	0.00208717
514.0000	0.00257463
513.0000	0.00335194
512.0000	0.00448244
511.0000	0.00593065
510.0000	0.00773095
509.0000	0.0101009
508.0000	0.0130446
507.0000	0.0170558
506.0000	0.0218707
505.0000	0.0279529
504.0000	0.0357066
503.0000	0.0450496
502.0000	0.0560038
501.0000	0.0687707
500.0000	0.0828796
499.0000	0.0980487
498.0000	0.113314
497.0000	0.127899
496.0000	0.140378
495.0000	0.149758
494.0000	0.154904
493.0000	0.15526
492.0000	0.150804
491.0000	0.142306
490.0000	0.13105
489.0000	0.118277
488.0000	0.105166
487.0000	0.0926817
486.0000	0.0813204
485.0000	0.0714825
484.0000	0.0631077
483.0000	0.0559006
482.0000	0.0498049
481.0000	0.0447209
480.0000	0.0406476
479.0000	0.0377716
478.0000	0.0358179
477.0000	0.0350642
476.0000	0.0354857
475.0000	0.0369514
474.0000	0.0398563
473.0000	0.04411
472.0000	0.0497467
471.0000	0.0570804
470.0000	0.0657623
469.0000	0.075826
468.0000	0.0866467
467.0000	0.0979209
466.0000	0.109359
465.0000	0.119436
464.0000	0.127813
463.0000	0.133669
462.0000	0.136229
461.0000	0.135204
460.0000	0.130812
459.0000	0.123667
458.0000	0.11413
457.0000	0.103559
456.0000	0.0925939
455.0000	0.0818807
454.0000	0.0721313
453.0000	0.063341
452.0000	0.0557601
451.0000	0.0494301
450.0000	0.0443249
449.0000	0.0402705
448.0000	0.0372929
447.0000	0.0353323
446.0000	0.0344816
445.0000	0.0347286
444.0000	0.0358598
443.0000	0.0379857
442.0000	0.0409143
441.0000	0.044538
440.0000	0.0486796
439.0000	0.0530498
438.0000	0.0573402
437.0000	0.0610651
436.0000	0.0640346
435.0000	0.0659214
434.0000	0.0665324
433.0000	0.0655698
432.0000	0.0633726
431.0000	0.0601043
430.0000	0.0557527
429.0000	0.0509751
428.0000	0.0459851
427.0000	0.0410331
426.0000	0.0363849
425.0000	0.0321394
424.0000	0.028576
423.0000	0.0254806
422.0000	0.0231239
421.0000	0.0212968
420.0000	0.020217
419.0000	0.0194862
418.0000	0.0193205
417.0000	0.0197887
416.0000	0.020214
415.0000	0.0210157
414.0000	0.0219569
413.0000	0.0230346
412.0000	0.0239898
411.0000	0.0244852
410.0000	0.024942
409.0000	0.024914
408.0000	0.0244843
407.0000	0.0236788
406.0000	0.0226862
405.0000	0.021736
404.0000	0.0207761
403.0000	0.019799
402.0000	0.018627
401.0000	0.0173215
400.0000	0.0162781
399.0000	0.0148968
398.0000	0.0134663
397.0000	0.012433
396.0000	0.0116028
395.0000	0.0109283
394.0000	0.0105525
393.0000	0.0104692
392.0000	0.0103171
391.0000	0.0103039
390.0000	0.0103398
389.0000	0.01047
388.0000	0.010574
387.0000	0.0106256
386.0000	0.010625
385.0000	0.0105683
384.0000	0.0104908
383.0000	0.0104341
382.0000	0.0104624
381.0000	0.0102552
380.0000	0.0101899
379.0000	0.0097109
378.0000	0.009536
377.0000	0.00918235
376.0000	0.00846828
375.0000	0.00798599
374.0000	0.00737087
373.0000	0.00702171
372.0000	0.00661905
371.0000	0.00661518
370.0000	0.00625358
369.0000	0.00613673
368.0000	0.00617275
367.0000	0.00610671
366.0000	0.00638293
365.0000	0.00649399
364.0000	0.00673964
363.0000	0.00677749
362.0000	0.006768
361.0000	0.00673306
360.0000	0.00699643
359.0000	0.006445
358.0000	0.00636463
357.0000	0.00608857
356.0000	0.00627657
355.0000	0.00623869
354.0000	0.0060346
353.0000	0.00630798
352.0000	0.00607376
351.0000	0.00610321
350.0000	0.00700664
349.0000	0.00730531
348.0000	0.00766991
347.0000	0.00841294
346.0000	0.00897443
345.0000	0.0092565
344.0000	0.00988472
343.0000	0.00955247
342.0000	0.00978709
341.0000	0.0107731
340.0000	0.00884334
339.0000	0.00928534
338.0000	0.00953316
337.0000	0.00995258
336.0000	0.0104592
335.0000	0.0112146
334.0000	0.0118938
333.0000	0.0127085
332.0000	0.0136295
331.0000	0.0146752
330.0000	0.0157787
329.0000	0.0168482
328.0000	0.0180933
327.0000	0.0195691
326.0000	0.0211894
325.0000	0.0229759
324.0000	0.02498
323.0000	0.0272782
322.0000	0.0298034
321.0000	0.0325575
320.0000	0.0354805
319.0000	0.0385922
318.0000	0.0419123
317.0000	0.0454237
316.0000	0.0493094
315.0000	0.0538053
314.0000	0.0592444
313.0000	0.0661606
312.0000	0.0748968
311.0000	0.086054
310.0000	0.0998595
309.0000	0.116608
308.0000	0.136036
307.0000	0.157573
306.0000	0.179724
305.0000	0.200652
304.0000	0.218681
303.0000	0.232811
302.0000	0.242859
301.0000	0.249959
300.0000	0.256539
299.0000	0.26591
298.0000	0.281868
297.0000	0.307838
296.0000	0.34665
295.0000	0.400162
294.0000	0.46924
293.0000	0.554505
292.0000	0.656823
291.0000	0.778038
290.0000	0.920107
289.0000	1.08519
288.0000	1.27661
287.0000	1.5034
286.0000	1.7785
285.0000	2.11266
284.0000	2.42073
283.0000	2.38256
282.0000	2.09201
281.0000	1.82243
280.0000	1.60899
279.0000	1.44058
278.0000	1.30682
277.0000	1.20152
276.0000	1.11789
275.0000	1.05097
274.0000	1.00065
273.0000	0.97049
272.0000	0.956506
271.0000	0.934603
270.0000	0.890436
269.0000	0.847241
268.0000	0.815931
267.0000	0.788823
266.0000	0.764425
265.0000	0.749629
264.0000	0.750024
263.0000	0.757163
262.0000	0.756789
261.0000	0.747017
260.0000	0.728816
259.0000	0.703131
258.0000	0.67756
257.0000	0.657144
256.0000	0.637839
255.0000	0.61751
254.0000	0.597002
253.0000	0.576646
252.0000	0.557219
251.0000	0.539697
250.0000	0.522975

##### Extended Information
[Comments]
Sample name	07-ar-30min
Comment	1
User	LASJ
Division
Company	Universität Heidelberg

[Detailed Information]
Creation date	22.09.2020 12:49

Data array type	Linear data array
Horizontal axis	Wavelength [nm]
Vertical axis	Abs
Start	600 nm
End	250 nm
Data interval	1 nm
Data points	351     

[Measurement Information]
Instrument name	V-670
Model name	V-670
Serial No.	B073561154

Accessory	USE-753
Accessory S/N	C257561148
  Cell length	10 mm

Measurement date	22.09.2020 12:48

Photometric mode	Abs
Measurement range	600 - 250 nm
Data interval	1 nm
UV/Vis bandwidth	1.0 nm
NIR bandwidth	4.0 nm
Response	Medium
Scan speed	400 nm/min
Change source at	340 nm
Change grating at	850 nm
Light source	D2/WI
Filter exchange	Step
Correction	Baseline

